x_original,nm,cm^-1,intensity
950.00,965.41,2375.53,17378.00
949.95,965.36,2374.96,17017.00
949.90,965.30,2374.39,19809.00
949.84,965.25,2373.82,18731.00
949.79,965.20,2373.25,16028.00
949.74,965.14,2372.68,19061.00
949.69,965.09,2372.12,13559.00
949.64,965.04,2371.55,25330.00
949.58,964.98,2370.98,23565.00
949.53,964.93,2370.41,16511.00
949.48,964.88,2369.84,18601.00
949.43,964.82,2369.27,17990.00
949.37,964.77,2368.70,18688.00
949.32,964.72,2368.13,16902.00
949.27,964.66,2367.56,15860.00
949.22,964.61,2366.99,15139.00
949.17,964.56,2366.42,18965.00
949.11,964.51,2365.85,17347.00
949.06,964.45,2365.28,17628.00
949.01,964.40,2364.71,15066.00
948.96,964.35,2364.14,18866.00
948.91,964.29,2363.57,20841.00
948.85,964.24,2362.99,19384.00
948.80,964.19,2362.42,16373.00
948.75,964.13,2361.85,17286.00
948.70,964.08,2361.28,17924.00
948.65,964.03,2360.71,21182.00
948.59,963.97,2360.14,14986.00
948.54,963.92,2359.57,18281.00
948.49,963.87,2359.00,22439.00
948.44,963.81,2358.43,20592.00
948.38,963.76,2357.86,20958.00
948.33,963.71,2357.29,17803.00
948.28,963.65,2356.72,17125.00
948.23,963.60,2356.14,21979.00
948.18,963.55,2355.57,19956.00
948.12,963.50,2355.00,17003.00
948.07,963.44,2354.43,23384.00
948.02,963.39,2353.86,17400.00
947.97,963.34,2353.29,17013.00
947.92,963.28,2352.71,17130.00
947.86,963.23,2352.14,18363.00
947.81,963.18,2351.57,18519.00
947.76,963.12,2351.00,18514.00
947.71,963.07,2350.43,18703.00
947.66,963.02,2349.86,20541.00
947.60,962.96,2349.28,18909.00
947.55,962.91,2348.71,21599.00
947.50,962.86,2348.14,20716.00
947.45,962.80,2347.57,20811.00
947.40,962.75,2347.00,21854.00
947.34,962.70,2346.42,18262.00
947.29,962.64,2345.85,15986.00
947.24,962.59,2345.28,18703.00
947.19,962.54,2344.71,20133.00
947.13,962.48,2344.13,19855.00
947.08,962.43,2343.56,22577.00
947.03,962.38,2342.99,17863.00
946.98,962.33,2342.41,19872.00
946.93,962.27,2341.84,20478.00
946.87,962.22,2341.27,19527.00
946.82,962.17,2340.70,18965.00
946.77,962.11,2340.12,17449.00
946.72,962.06,2339.55,18055.00
946.67,962.01,2338.98,21412.00
946.61,961.95,2338.40,22698.00
946.56,961.90,2337.83,18500.00
946.51,961.85,2337.26,19593.00
946.46,961.79,2336.68,22363.00
946.41,961.74,2336.11,19982.00
946.35,961.69,2335.54,22036.00
946.30,961.63,2334.96,17703.00
946.25,961.58,2334.39,21354.00
946.20,961.53,2333.82,17546.00
946.14,961.47,2333.24,20093.00
946.09,961.42,2332.67,25580.00
946.04,961.37,2332.09,23081.00
945.99,961.31,2331.52,22244.00
945.94,961.26,2330.95,19649.00
945.88,961.21,2330.37,20163.00
945.83,961.16,2329.80,19232.00
945.78,961.10,2329.22,22194.00
945.73,961.05,2328.65,21914.00
945.68,961.00,2328.08,19827.00
945.62,960.94,2327.50,19969.00
945.57,960.89,2326.93,19536.00
945.52,960.84,2326.35,22505.00
945.47,960.78,2325.78,27335.00
945.42,960.73,2325.20,19809.00
945.36,960.68,2324.63,20320.00
945.31,960.62,2324.05,19862.00
945.26,960.57,2323.48,21212.00
945.21,960.52,2322.90,17474.00
945.15,960.46,2322.33,22559.00
945.10,960.41,2321.75,16910.00
945.05,960.36,2321.18,19510.00
945.00,960.30,2320.60,22765.00
944.95,960.25,2320.03,22118.00
944.89,960.20,2319.45,15392.00
944.84,960.15,2318.88,23340.00
944.79,960.09,2318.30,18710.00
944.74,960.04,2317.73,19848.00
944.69,959.99,2317.15,21594.00
944.63,959.93,2316.57,18737.00
944.58,959.88,2316.00,20423.00
944.53,959.83,2315.42,31283.00
944.48,959.77,2314.85,18208.00
944.43,959.72,2314.27,22586.00
944.37,959.67,2313.70,24744.00
944.32,959.61,2313.12,22267.00
944.27,959.56,2312.54,25352.00
944.22,959.51,2311.97,20394.00
944.17,959.45,2311.39,22828.00
944.11,959.40,2310.81,24057.00
944.06,959.35,2310.24,22722.00
944.01,959.29,2309.66,19816.00
943.96,959.24,2309.09,24739.00
943.90,959.19,2308.51,24058.00
943.85,959.13,2307.93,18716.00
943.80,959.08,2307.36,27570.00
943.75,959.03,2306.78,18923.00
943.70,958.98,2306.20,20511.00
943.64,958.92,2305.63,22902.00
943.59,958.87,2305.05,19948.00
943.54,958.82,2304.47,20578.00
943.49,958.76,2303.89,21693.00
943.44,958.71,2303.32,19982.00
943.38,958.66,2302.74,19862.00
943.33,958.60,2302.16,19366.00
943.28,958.55,2301.59,20489.00
943.23,958.50,2301.01,25071.00
943.18,958.44,2300.43,23753.00
943.12,958.39,2299.85,18636.00
943.07,958.34,2299.28,23411.00
943.02,958.28,2298.70,19042.00
942.97,958.23,2298.12,20641.00
942.91,958.18,2297.54,24686.00
942.86,958.12,2296.97,26779.00
942.81,958.07,2296.39,25308.00
942.76,958.02,2295.81,17582.00
942.71,957.97,2295.23,18104.00
942.65,957.91,2294.65,18795.00
942.60,957.86,2294.08,21271.00
942.55,957.81,2293.50,23839.00
942.50,957.75,2292.92,26659.00
942.45,957.70,2292.34,18981.00
942.39,957.65,2291.76,17725.00
942.34,957.59,2291.18,19426.00
942.29,957.54,2290.61,22479.00
942.24,957.49,2290.03,25196.00
942.19,957.43,2289.45,22442.00
942.13,957.38,2288.87,20615.00
942.08,957.33,2288.29,20574.00
942.03,957.27,2287.71,18895.00
941.98,957.22,2287.13,23241.00
941.92,957.17,2286.55,23074.00
941.87,957.11,2285.97,19003.00
941.82,957.06,2285.40,23713.00
941.77,957.01,2284.82,24223.00
941.72,956.95,2284.24,24732.00
941.66,956.90,2283.66,22380.00
941.61,956.85,2283.08,21609.00
941.56,956.80,2282.50,24943.00
941.51,956.74,2281.92,22103.00
941.46,956.69,2281.34,21972.00
941.40,956.64,2280.76,22778.00
941.35,956.58,2280.18,23548.00
941.30,956.53,2279.60,20631.00
941.25,956.48,2279.02,22139.00
941.20,956.42,2278.44,22390.00
941.14,956.37,2277.86,21405.00
941.09,956.32,2277.28,20588.00
941.04,956.26,2276.70,20884.00
940.99,956.21,2276.12,22608.00
940.94,956.16,2275.54,20717.00
940.88,956.10,2274.96,22654.00
940.83,956.05,2274.38,19392.00
940.78,956.00,2273.80,21058.00
940.73,955.94,2273.22,24506.00
940.67,955.89,2272.64,22088.00
940.62,955.84,2272.06,22627.00
940.57,955.79,2271.48,25446.00
940.52,955.73,2270.90,22649.00
940.47,955.68,2270.32,20035.00
940.41,955.63,2269.74,24046.00
940.36,955.57,2269.16,24946.00
940.31,955.52,2268.57,21738.00
940.26,955.47,2267.99,25047.00
940.21,955.41,2267.41,21549.00
940.15,955.36,2266.83,24594.00
940.10,955.31,2266.25,25405.00
940.05,955.25,2265.67,20140.00
940.00,955.20,2265.09,16533.00
939.95,955.15,2264.51,23268.00
939.89,955.09,2263.92,25054.00
939.84,955.04,2263.34,25905.00
939.79,954.99,2262.76,22458.00
939.74,954.93,2262.18,24609.00
939.68,954.88,2261.60,21738.00
939.63,954.83,2261.02,27229.00
939.58,954.77,2260.43,23271.00
939.53,954.72,2259.85,20311.00
939.48,954.67,2259.27,26892.00
939.42,954.62,2258.69,25497.00
939.37,954.56,2258.11,22379.00
939.32,954.51,2257.52,19410.00
939.27,954.46,2256.94,24424.00
939.22,954.40,2256.36,25258.00
939.16,954.35,2255.78,23893.00
939.11,954.30,2255.19,25980.00
939.06,954.24,2254.61,21725.00
939.01,954.19,2254.03,23098.00
938.96,954.14,2253.45,23730.00
938.90,954.08,2252.86,24092.00
938.85,954.03,2252.28,22645.00
938.80,953.98,2251.70,27509.00
938.75,953.92,2251.12,18351.00
938.69,953.87,2250.53,24597.00
938.64,953.82,2249.95,25435.00
938.59,953.76,2249.37,27414.00
938.54,953.71,2248.78,22940.00
938.49,953.66,2248.20,27684.00
938.43,953.61,2247.62,25227.00
938.38,953.55,2247.03,28962.00
938.33,953.50,2246.45,25734.00
938.28,953.45,2245.87,21076.00
938.23,953.39,2245.28,27014.00
938.17,953.34,2244.70,29555.00
938.12,953.29,2244.12,27653.00
938.07,953.23,2243.53,21042.00
938.02,953.18,2242.95,22923.00
937.97,953.13,2242.36,24049.00
937.91,953.07,2241.78,21407.00
937.86,953.02,2241.20,22063.00
937.81,952.97,2240.61,26526.00
937.76,952.91,2240.03,22817.00
937.71,952.86,2239.44,18347.00
937.65,952.81,2238.86,24307.00
937.60,952.75,2238.28,23173.00
937.55,952.70,2237.69,22917.00
937.50,952.65,2237.11,28451.00
937.44,952.59,2236.52,25990.00
937.39,952.54,2235.94,26098.00
937.34,952.49,2235.35,24121.00
937.29,952.44,2234.77,23679.00
937.24,952.38,2234.18,21440.00
937.18,952.33,2233.60,22623.00
937.13,952.28,2233.01,22379.00
937.08,952.22,2232.43,29605.00
937.03,952.17,2231.84,23732.00
936.98,952.12,2231.26,23703.00
936.92,952.06,2230.67,25146.00
936.87,952.01,2230.09,21282.00
936.82,951.96,2229.50,24321.00
936.77,951.90,2228.92,22563.00
936.72,951.85,2228.33,23460.00
936.66,951.80,2227.75,25124.00
936.61,951.74,2227.16,31315.00
936.56,951.69,2226.57,24936.00
936.51,951.64,2225.99,22642.00
936.45,951.58,2225.40,25684.00
936.40,951.53,2224.82,21928.00
936.35,951.48,2224.23,27881.00
936.30,951.43,2223.65,24301.00
936.25,951.37,2223.06,24745.00
936.19,951.32,2222.47,20376.00
936.14,951.27,2221.89,24308.00
936.09,951.21,2221.30,23167.00
936.04,951.16,2220.71,26520.00
935.99,951.11,2220.13,24924.00
935.93,951.05,2219.54,23854.00
935.88,951.00,2218.96,28227.00
935.83,950.95,2218.37,25518.00
935.78,950.89,2217.78,31948.00
935.73,950.84,2217.20,23940.00
935.67,950.79,2216.61,24608.00
935.62,950.73,2216.02,27931.00
935.57,950.68,2215.44,28542.00
935.52,950.63,2214.85,24233.00
935.46,950.57,2214.26,23072.00
935.41,950.52,2213.67,23870.00
935.36,950.47,2213.09,25566.00
935.31,950.41,2212.50,25724.00
935.26,950.36,2211.91,30589.00
935.20,950.31,2211.33,27385.00
935.15,950.26,2210.74,21520.00
935.10,950.20,2210.15,25377.00
935.05,950.15,2209.56,18292.00
935.00,950.10,2208.98,23115.00
934.94,950.04,2208.39,28325.00
934.89,949.99,2207.80,27734.00
934.84,949.94,2207.21,29930.00
934.79,949.88,2206.62,22706.00
934.74,949.83,2206.04,24292.00
934.68,949.78,2205.45,25011.00
934.63,949.72,2204.86,24357.00
934.58,949.67,2204.27,26070.00
934.53,949.62,2203.68,25167.00
934.48,949.56,2203.10,31517.00
934.42,949.51,2202.51,28517.00
934.37,949.46,2201.92,25367.00
934.32,949.40,2201.33,24003.00
934.27,949.35,2200.74,27125.00
934.21,949.30,2200.15,24071.00
934.16,949.24,2199.56,26172.00
934.11,949.19,2198.98,28805.00
934.06,949.14,2198.39,24712.00
934.01,949.09,2197.80,25668.00
933.95,949.03,2197.21,24167.00
933.90,948.98,2196.62,27301.00
933.85,948.93,2196.03,21998.00
933.80,948.87,2195.44,22874.00
933.75,948.82,2194.85,26241.00
933.69,948.77,2194.26,25975.00
933.64,948.71,2193.67,21500.00
933.59,948.66,2193.08,23916.00
933.54,948.61,2192.50,26213.00
933.49,948.55,2191.91,27569.00
933.43,948.50,2191.32,27048.00
933.38,948.45,2190.73,27089.00
933.33,948.39,2190.14,26815.00
933.28,948.34,2189.55,24417.00
933.22,948.29,2188.96,26368.00
933.17,948.23,2188.37,22580.00
933.12,948.18,2187.78,25443.00
933.07,948.13,2187.19,23411.00
933.02,948.08,2186.60,20823.00
932.96,948.02,2186.01,29440.00
932.91,947.97,2185.42,24020.00
932.86,947.92,2184.83,24087.00
932.81,947.86,2184.24,26459.00
932.76,947.81,2183.65,23279.00
932.70,947.76,2183.06,27122.00
932.65,947.70,2182.46,23906.00
932.60,947.65,2181.87,28555.00
932.55,947.60,2181.28,19386.00
932.50,947.54,2180.69,23638.00
932.44,947.49,2180.10,22631.00
932.39,947.44,2179.51,26240.00
932.34,947.38,2178.92,26106.00
932.29,947.33,2178.33,25536.00
932.23,947.28,2177.74,25362.00
932.18,947.22,2177.15,29084.00
932.13,947.17,2176.55,35990.00
932.08,947.12,2175.96,25142.00
932.03,947.06,2175.37,20831.00
931.97,947.01,2174.78,25799.00
931.92,946.96,2174.19,28643.00
931.87,946.91,2173.60,29743.00
931.82,946.85,2173.01,28965.00
931.77,946.80,2172.41,28628.00
931.71,946.75,2171.82,26714.00
931.66,946.69,2171.23,23617.00
931.61,946.64,2170.64,24143.00
931.56,946.59,2170.05,21394.00
931.51,946.53,2169.45,26696.00
931.45,946.48,2168.86,23293.00
931.40,946.43,2168.27,32082.00
931.35,946.37,2167.68,25922.00
931.30,946.32,2167.09,24768.00
931.25,946.27,2166.49,25627.00
931.19,946.21,2165.90,26904.00
931.14,946.16,2165.31,24667.00
931.09,946.11,2164.72,26594.00
931.04,946.05,2164.12,24763.00
930.98,946.00,2163.53,29576.00
930.93,945.95,2162.94,27952.00
930.88,945.90,2162.35,24330.00
930.83,945.84,2161.75,22450.00
930.78,945.79,2161.16,31475.00
930.72,945.74,2160.57,32528.00
930.67,945.68,2159.97,26460.00
930.62,945.63,2159.38,24003.00
930.57,945.58,2158.79,22917.00
930.52,945.52,2158.19,23037.00
930.46,945.47,2157.60,25812.00
930.41,945.42,2157.01,29072.00
930.36,945.36,2156.41,22765.00
930.31,945.31,2155.82,26021.00
930.26,945.26,2155.23,31002.00
930.20,945.20,2154.63,27167.00
930.15,945.15,2154.04,27823.00
930.10,945.10,2153.44,29323.00
930.05,945.04,2152.85,32043.00
929.99,944.99,2152.26,23203.00
929.94,944.94,2151.66,26947.00
929.89,944.88,2151.07,26403.00
929.84,944.83,2150.47,26566.00
929.79,944.78,2149.88,24968.00
929.73,944.73,2149.29,29759.00
929.68,944.67,2148.69,29322.00
929.63,944.62,2148.10,27956.00
929.58,944.57,2147.50,22466.00
929.53,944.51,2146.91,27311.00
929.47,944.46,2146.31,29211.00
929.42,944.41,2145.72,31016.00
929.37,944.35,2145.12,26486.00
929.32,944.30,2144.53,27356.00
929.27,944.25,2143.93,27697.00
929.21,944.19,2143.34,28952.00
929.16,944.14,2142.74,28362.00
929.11,944.09,2142.15,33858.00
929.06,944.03,2141.55,26340.00
929.00,943.98,2140.96,27963.00
928.95,943.93,2140.36,29464.00
928.90,943.87,2139.77,31141.00
928.85,943.82,2139.17,25892.00
928.80,943.77,2138.58,28300.00
928.74,943.72,2137.98,34355.00
928.69,943.66,2137.39,36416.00
928.64,943.61,2136.79,24652.00
928.59,943.56,2136.19,28756.00
928.54,943.50,2135.60,24507.00
928.48,943.45,2135.00,23632.00
928.43,943.40,2134.41,24799.00
928.38,943.34,2133.81,25326.00
928.33,943.29,2133.21,27034.00
928.28,943.24,2132.62,32804.00
928.22,943.18,2132.02,33698.00
928.17,943.13,2131.43,26392.00
928.12,943.08,2130.83,27872.00
928.07,943.02,2130.23,37511.00
928.02,942.97,2129.64,32195.00
927.96,942.92,2129.04,28491.00
927.91,942.86,2128.44,27110.00
927.86,942.81,2127.85,27858.00
927.81,942.76,2127.25,26471.00
927.75,942.70,2126.65,27695.00
927.70,942.65,2126.06,27799.00
927.65,942.60,2125.46,24788.00
927.60,942.55,2124.86,26677.00
927.55,942.49,2124.26,31793.00
927.49,942.44,2123.67,25114.00
927.44,942.39,2123.07,23427.00
927.39,942.33,2122.47,34955.00
927.34,942.28,2121.88,25955.00
927.29,942.23,2121.28,24957.00
927.23,942.17,2120.68,32041.00
927.18,942.12,2120.08,27292.00
927.13,942.07,2119.49,30300.00
927.08,942.01,2118.89,23650.00
927.03,941.96,2118.29,28799.00
926.97,941.91,2117.69,32560.00
926.92,941.85,2117.09,29475.00
926.87,941.80,2116.50,24742.00
926.82,941.75,2115.90,27352.00
926.76,941.69,2115.30,23584.00
926.71,941.64,2114.70,27776.00
926.66,941.59,2114.10,28292.00
926.61,941.54,2113.50,31011.00
926.56,941.48,2112.91,30149.00
926.50,941.43,2112.31,29202.00
926.45,941.38,2111.71,30196.00
926.40,941.32,2111.11,29191.00
926.35,941.27,2110.51,26798.00
926.30,941.22,2109.91,31786.00
926.24,941.16,2109.31,29646.00
926.19,941.11,2108.72,34417.00
926.14,941.06,2108.12,26055.00
926.09,941.00,2107.52,28063.00
926.04,940.95,2106.92,31777.00
925.98,940.90,2106.32,28471.00
925.93,940.84,2105.72,24770.00
925.88,940.79,2105.12,28956.00
925.83,940.74,2104.52,28561.00
925.77,940.68,2103.92,28578.00
925.72,940.63,2103.32,26645.00
925.67,940.58,2102.72,25489.00
925.62,940.52,2102.12,26264.00
925.57,940.47,2101.52,30799.00
925.51,940.42,2100.92,26189.00
925.46,940.37,2100.32,32895.00
925.41,940.31,2099.72,30145.00
925.36,940.26,2099.12,27829.00
925.31,940.21,2098.52,34263.00
925.25,940.15,2097.92,32872.00
925.20,940.10,2097.32,30833.00
925.15,940.05,2096.72,27854.00
925.10,939.99,2096.12,27137.00
925.05,939.94,2095.52,30851.00
924.99,939.89,2094.92,26028.00
924.94,939.83,2094.32,25239.00
924.89,939.78,2093.72,35929.00
924.84,939.73,2093.12,37768.00
924.79,939.67,2092.52,28325.00
924.73,939.62,2091.92,28320.00
924.68,939.57,2091.32,27623.00
924.63,939.51,2090.72,32250.00
924.58,939.46,2090.12,27111.00
924.52,939.41,2089.52,29115.00
924.47,939.36,2088.91,35793.00
924.42,939.30,2088.31,32500.00
924.37,939.25,2087.71,26682.00
924.32,939.20,2087.11,26963.00
924.26,939.14,2086.51,27462.00
924.21,939.09,2085.91,30478.00
924.16,939.04,2085.31,27132.00
924.11,938.98,2084.70,27732.00
924.06,938.93,2084.10,30686.00
924.00,938.88,2083.50,29728.00
923.95,938.82,2082.90,30310.00
923.90,938.77,2082.30,32147.00
923.85,938.72,2081.70,25657.00
923.80,938.66,2081.09,26062.00
923.74,938.61,2080.49,27263.00
923.69,938.56,2079.89,32187.00
923.64,938.50,2079.29,33352.00
923.59,938.45,2078.68,27292.00
923.53,938.40,2078.08,27352.00
923.48,938.34,2077.48,27261.00
923.43,938.29,2076.88,34345.00
923.38,938.24,2076.28,32116.00
923.33,938.19,2075.67,32156.00
923.27,938.13,2075.07,26663.00
923.22,938.08,2074.47,35044.00
923.17,938.03,2073.86,29056.00
923.12,937.97,2073.26,25167.00
923.07,937.92,2072.66,28931.00
923.01,937.87,2072.06,28815.00
922.96,937.81,2071.45,26359.00
922.91,937.76,2070.85,32696.00
922.86,937.71,2070.25,30162.00
922.81,937.65,2069.64,30179.00
922.75,937.60,2069.04,33860.00
922.70,937.55,2068.44,30021.00
922.65,937.49,2067.83,30985.00
922.60,937.44,2067.23,32535.00
922.54,937.39,2066.62,31771.00
922.49,937.33,2066.02,32960.00
922.44,937.28,2065.42,30209.00
922.39,937.23,2064.81,28729.00
922.34,937.17,2064.21,29342.00
922.28,937.12,2063.61,28783.00
922.23,937.07,2063.00,28116.00
922.18,937.02,2062.40,30373.00
922.13,936.96,2061.79,27510.00
922.08,936.91,2061.19,27338.00
922.02,936.86,2060.58,32077.00
921.97,936.80,2059.98,29635.00
921.92,936.75,2059.38,25828.00
921.87,936.70,2058.77,27582.00
921.82,936.64,2058.17,29949.00
921.76,936.59,2057.56,29213.00
921.71,936.54,2056.96,26218.00
921.66,936.48,2056.35,30965.00
921.61,936.43,2055.75,29388.00
921.56,936.38,2055.14,27052.00
921.50,936.32,2054.54,34809.00
921.45,936.27,2053.93,27170.00
921.40,936.22,2053.33,30923.00
921.35,936.16,2052.72,26444.00
921.29,936.11,2052.12,24359.00
921.24,936.06,2051.51,29970.00
921.19,936.01,2050.91,30262.00
921.14,935.95,2050.30,25957.00
921.09,935.90,2049.69,27844.00
921.03,935.85,2049.09,32141.00
920.98,935.79,2048.48,34124.00
920.93,935.74,2047.88,33730.00
920.88,935.69,2047.27,33274.00
920.83,935.63,2046.67,31813.00
920.77,935.58,2046.06,29823.00
920.72,935.53,2045.45,29163.00
920.67,935.47,2044.85,30455.00
920.62,935.42,2044.24,26141.00
920.57,935.37,2043.64,28705.00
920.51,935.31,2043.03,25244.00
920.46,935.26,2042.42,30100.00
920.41,935.21,2041.82,32310.00
920.36,935.15,2041.21,34062.00
920.30,935.10,2040.60,30763.00
920.25,935.05,2040.00,27084.00
920.20,934.99,2039.39,29533.00
920.15,934.94,2038.78,33631.00
920.10,934.89,2038.18,31696.00
920.04,934.84,2037.57,30091.00
919.99,934.78,2036.96,24760.00
919.94,934.73,2036.35,32124.00
919.89,934.68,2035.75,36658.00
919.84,934.62,2035.14,33420.00
919.78,934.57,2034.53,30933.00
919.73,934.52,2033.93,30871.00
919.68,934.46,2033.32,26450.00
919.63,934.41,2032.71,31020.00
919.58,934.36,2032.10,27743.00
919.52,934.30,2031.50,31793.00
919.47,934.25,2030.89,29315.00
919.42,934.20,2030.28,33275.00
919.37,934.14,2029.67,32808.00
919.31,934.09,2029.06,33496.00
919.26,934.04,2028.46,27044.00
919.21,933.98,2027.85,33351.00
919.16,933.93,2027.24,26237.00
919.11,933.88,2026.63,29772.00
919.05,933.83,2026.02,28185.00
919.00,933.77,2025.42,30445.00
918.95,933.72,2024.81,34778.00
918.90,933.67,2024.20,29466.00
918.85,933.61,2023.59,32763.00
918.79,933.56,2022.98,33089.00
918.74,933.51,2022.37,30634.00
918.69,933.45,2021.76,29167.00
918.64,933.40,2021.16,25198.00
918.59,933.35,2020.55,31711.00
918.53,933.29,2019.94,36907.00
918.48,933.24,2019.33,29760.00
918.43,933.19,2018.72,31655.00
918.38,933.13,2018.11,34428.00
918.33,933.08,2017.50,31200.00
918.27,933.03,2016.89,36445.00
918.22,932.97,2016.28,33486.00
918.17,932.92,2015.67,32247.00
918.12,932.87,2015.06,28024.00
918.06,932.81,2014.45,33887.00
918.01,932.76,2013.84,27433.00
917.96,932.71,2013.23,24703.00
917.91,932.66,2012.62,31228.00
917.86,932.60,2012.01,30077.00
917.80,932.55,2011.40,34595.00
917.75,932.50,2010.79,31402.00
917.70,932.44,2010.18,29852.00
917.65,932.39,2009.57,34055.00
917.60,932.34,2008.96,32779.00
917.54,932.28,2008.35,31724.00
917.49,932.23,2007.74,32217.00
917.44,932.18,2007.13,30076.00
917.39,932.12,2006.52,28597.00
917.34,932.07,2005.91,33385.00
917.28,932.02,2005.30,35334.00
917.23,931.96,2004.69,29118.00
917.18,931.91,2004.08,29615.00
917.13,931.86,2003.47,33113.00
917.07,931.80,2002.86,26987.00
917.02,931.75,2002.25,34535.00
916.97,931.70,2001.64,31582.00
916.92,931.65,2001.03,32256.00
916.87,931.59,2000.41,37414.00
916.81,931.54,1999.80,33186.00
916.76,931.49,1999.19,27664.00
916.71,931.43,1998.58,30981.00
916.66,931.38,1997.97,29196.00
916.61,931.33,1997.36,27568.00
916.55,931.27,1996.75,32707.00
916.50,931.22,1996.13,34314.00
